234
22017 30803
22034 30856
22072 30907
22088 30953
22096 30962
22089 30939
22087 30925
22075 30905
22072 30893
22061 30874
22061 30888
22065 30898
22069 30914
22082 30928
22083 30944
22090 30954
22095 30979
22096 30991
22101 31010
22116 31026
22118 31037
22125 31059
22126 31077
22133 31074
22136 31105
22148 31111
22153 31132
22159 31162
22163 31176
22164 31187
22171 31204
22179 31213
22187 31230
22192 31249
22198 31270
22203 31256
22210 31274
22208 31299
22182 31216
22151 31043
22120 30956
22089 30873
22029 30786
21997 30698
21967 30596
21936 30444
21908 30446
21905 30446
21909 30448
21902 30445
21927 30544
21944 30603
21961 30649
21985 30704
22017 30757
22039 30812
22058 30908
22069 30958
22094 30964
22086 30957
22086 30942
22079 30926
22073 30887
22064 30873
22059 30870
22068 30888
22072 30902
22078 30915
22080 30943
22085 30952
22090 30967
22100 30981
22107 30994
22104 31021
22115 31035
22119 31051
22122 31064
22134 31077
22137 31092
22142 31120
22144 31129
22149 31147
22157 31162
22169 31171
22173 31190
22180 31219
22184 31229
22183 31237
22196 31256
22201 31266
22207 31284
22211 31298
22216 31212
22180 31128
22123 31041
22090 30957
22061 30862
22026 30700
22001 30614
21966 30528
21905 30444
21908 30448
21909 30447
21908 30443
21907 30498
21926 30550
21962 30596
21981 30652
22001 30753
22017 30803
22034 30852
22063 30908
22090 30957
22089 30959
22089 30941
22086 30925
22077 30904
22066 30887
22062 30871
22058 30875
22063 30894
22071 30913
22074 30925
22078 30943
22089 30962
22092 30977
22097 30992
22102 31006
22113 31026
22118 31036
22123 31051
22129 31079
22135 31091
22133 31102
22146 31120
22152 31129
22156 31146
22159 31168
22166 31186
22171 31201
22181 31220
22183 31226
22193 31243
22203 31270
22203 31289
22208 31301
22216 31306
22182 31217
22154 31129
22120 30958
22089 30873
22064 30792
21997 30703
21973 30617
21935 30455
21907 30447
21908 30447
21911 30450
21910 30447
21927 30498
21946 30601
21965 30654
21981 30705
22004 30758
22033 30801
22053 30855
22075 30961
22089 30956
22092 30960
22086 30945
22078 30930
22074 30909
22066 30878
22058 30874
22060 30889
22070 30897
22076 30920
22078 30931
22087 30954
22085 30969
22101 30984
22104 30999
22111 31014
22119 31041
22119 31054
22127 31069
22131 31081
22139 31093
22146 31106
22152 31135
22160 31152
22159 31160
22168 31174
22177 31191
22185 31209
22184 31233
22193 31244
22199 31258
22208 31272
22209 31284
22217 31305
22217 31218
22189 31134
22152 31046
22097 30966
22064 30878
22034 30720
22002 30615
21975 30539
21940 30449
21915 30448
21907 30451
21911 30451
21908 30502
21934 30555
21946 30600
21982 30652
22003 30707
22019 30810
22038 30861
22055 30907
22088 30958
22094 30961
22091 30959
22091 30922
22081 30907
22075 30892
22060 30873
22058 30877
22064 30892
22070 30915
22075 30928
22082 30943
22092 30959
22097 30970
22105 30998
22106 31012
22110 31028
22111 31036
22123 31048
22126 31064
22134 31092
22136 31104
22141 31120
22150 31135
22160 31145
22164 31159
22166 31186
22175 31196
22179 31214
22189 31229
22189 31244
22196 31258
22206 31283
22203 31296
22216 31299
22180 31214
22153 31129
22120 30981
22091 30869
22058 30785
22032 30702
21966 30618
21938 30526
21905 30446
21909 30445
21908 30446
21908 30448
21926 30498
21947 30554
21964 30656
21983 30706
22000 30758
22036 30805
22055 30860
22072 30910
22092 31308
22215 31214
22182 31131
22152 31045
22119 30962
22063 30875
22031 30788
21999 30704
21970 30540
21941 30445
21909 30451
21907 30449
21908 30449
21910 30440
21927 30497
21945 30551
21962 30600
21982 30699
22003 30753
22021 30810
22033 30858
22074 30907
22090 30961
22090 30961
22095 30958
22085 30921
22078 30911
22072 30891
22068 30872
22059 30870
22066 30889
22070 30895
22076 30915
22077 30940
22087 30954
22088 30969
22095 30985
22098 30997
22110 31003
22112 31021
22123 31034
22123 31049
22130 31076
22137 31089
22139 31105
22145 31117
22153 31133
22157 31145
22163 31160
22170 31176
22176 31201
22178 31214
22183 31231
22185 31241
22193 31254
22202 31273
22211 31285
22209 31300
22212 31234
22186 31131
22154 31045
22118 30961
22092 30875
22030 30787
22000 30700
21971 30621
21939 30531
21908 30442
21906 30447
21907 30442
21909 30444
21916 30499
21944 30549
21962 30596
21980 30649
22001 30753
22020 30806
22033 30857
22053 30904
22073 30957
22090 30957
22088 30957
22085 30942
22074 30916
22069 30885
22065 30876
22057 30866
22058 30882
22072 30901
22076 30912
22081 30926
22085 30936
22088 31282
22208 31214
22183 31129
22151 31036
22120 30957
22089 30867
22059 30787
22027 30702
21974 30615
21940 30531
21903 30444
21904 30448
21905 30443
21904 30443
21907 30443
21925 30543
21940 30595
21960 30647
21978 30700
21998 30750
22017 30799
22035 30858
22054 30909
22091 30964
22091 30959
22091 30956
22085 30947
22079 30928
22071 30910
22069 30895
22059 30873
22062 30886
22062 30893
22069 30919
22077 30927
22082 30948
22086 30957
22090 30969
22100 30983
22100 30999
22110 31010
22114 31027
22117 31039
22128 31050
22125 31062
22130 31085
22140 31103
22144 31120
22148 31138
22154 31147
22156 31160
22161 31175
22165 31188
22172 31201
22180 31212
22188 31234
22192 31244
22201 31257
22208 31268
22207 31285
22208 31302
22213 31219
22182 31128
22157 31048
22121 30963
22094 30880
22061 30786
22030 30699
21990 30619
21939 30533
21906 30449
21911 30454
21909 30445
21907 30450
21907 30447
21927 30507
21947 30600
21965 30649
21980 30699
21998 30754
22014 30800
22037 30860
22053 30906
22074 30964
22090 30957
22092 30962
22085 30940
22080 30927
22071 30906
22068 30894
22060 30875
22061 30885
22063 30902
22069 30914
22078 30935
22083 30946
22086 30953
22092 30966
22094 30982
22108 30997
22113 31011
22116 31024
22213 31303
22187 31213
22154 31127
22125 31036
22095 30956
22062 30875
22029 30786
21998 30705
21971 30616
21940 30533
21911 30449
21903 30448
21905 30442
21906 30448
21905 30448
21924 30501
21946 30549
21963 30601
21982 30650
22000 30702
22017 30751
22038 30806
22057 30862
22075 30930
22089 30956
22090 30960
22089 30937
22084 30924
22077 30906
22074 30889
22066 30876
22061 30874
22059 30885
22066 30897
22071 30916
22076 30931
22081 30938
22081 30954
22089 30968
22093 30982
22104 30993
22105 31004
22107 31021
22115 31040
22122 31053
22124 31068
22133 31083
22134 31092
22141 31106
22146 31118
22151 31136
22154 31149
22155 31159
22163 31170
22167 31190
22168 31201
22177 31217
22183 31234
22192 31243
22194 31255
22197 31270
22205 31287
22212 31301
22214 31302
22185 31218
22153 31133
22123 31045
22090 30955
22058 30874
22033 30791
21998 30702
21973 30620
21943 30529
21906 30445
21911 30448
21906 30443
21906 30448
21905 30444
21927 30499
21942 30545
21964 30603
21983 30652
22001 30708
22017 30751
22038 30807
22051 30854
22072 30910
22087 30955
22094 30958
22087 30959
22087 30942
22079 30922
22071 30902
22214 31302
22184 31219
22148 31129
22121 31043
22092 30959
22058 30875
22030 30783
21996 30703
21968 30615
21971 30534
21938 30447
21908 30446
21905 30447
21909 30451
21907 30448
21908 30499
21930 30552
21945 30595
21965 30657
21983 30702
22001 30753
22019 30756
22040 30807
22056 30855
22075 30908
22091 30958
22090 30957
22092 30963
22081 30941
22080 30923
22071 30908
22072 30894
22063 30871
22059 30873
22058 30892
22065 30903
22070 30912
22077 30924
22082 30942
22087 30955
22092 30970
22095 30984
22101 30995
22104 31010
22109 31029
22117 31035
22121 31034
22124 31048
22128 31060
22136 31081
22139 31092
22143 31104
22147 31120
22156 31130
22152 31138
22162 31159
22163 31168
22176 31301
22213 31211
22181 31126
22153 31040
22115 30956
22087 30958
22059 30869
22028 30786
21995 30703
21967 30618
21937 30536
21936 30445
21905 30442
21905 30447
21903 30443
21904 30445
21908 30444
21921 30496
21944 30549
21963 30608
21980 30656
21998 30707
22004 30759
22020 30804
22036 30859
22056 30911
22073 30952
22096 30960
22092 30957
22089 30959
22084 30941
22080 30930
22078 30909
22073 30895
22068 30874
22061 30881
22061 30889
22068 30891
22072 30901
22073 30916
22081 30928
22086 30940
22088 30957
22093 30968
22095 30986
22104 31000
22103 31012
22110 31023
22115 31025
22116 31041
22123 31048
22125 31066
22136 31081
22141 31095
22140 31108
22145 31123
22150 31132
22153 31147
22157 31161
22159 31157
22166 31173
22175 31188
22176 31197
22184 31217
22189 31227
22187 31247
22193 31259
22196 31271
22205 31288
22205 31287
22214 31300
22212 31301
22181 31216
22181 31131
22152 31044
22118 30960
22089 30957
22061 30876
22032 30788
21995 30699
22002 30614
21967 30528
21937 30449
21907 30444
21905 30442
21903 30441
21905 30442
21904 30443
21902 30494
21923 30546
21947 30547
21961 30594
21982 30652
21998 30695
21996 30754
22017 30802
22035 30851
22049 30855
22072 30904
22090 30957
22087 30957
22093 30956
22091 30938
22086 30935
22077 30922
22074 30903
22070 30889
22064 30865
22061 30873
22060 30884
22064 30884
22071 30895
22077 30910
22078 30925
22075 30933
22086 30953
22091 30963
22090 30967
22098 30981
22106 30997
22107 31004
22108 31019
22114 31038
22114 31048
22122 31051
22129 31065
22134 31079
22133 31090
22138 31105
22142 31119
22148 31124
22152 31128
22154 31142
22159 31154
22167 31173
22163 31184
22171 31298
22212 31295
22181 31213
22152 31128
22152 31041
22119 30961
22088 30959
22057 30872
22031 30791
22033 30704
21997 30616
21972 30611
21937 30531
21907 30445
21909 30445
21906 30446
21909 30445
21907 30442
21905 30447
21907 30503
21924 30547
21948 30551
21962 30591
21981 30646
21982 30697
21998 30754
22017 30748
22032 30801
22052 30850
22052 30906
22068 30953
22093 30953
22090 30956
22090 30959
22089 30942
22086 30925
22076 30923
22070 30906
22063 30886
22066 30870
22059 30872
22056 30875
22062 30883
22069 30901
22066 30912
22075 30929
22080 30923
22085 30940
22088 30951
22091 30967
22095 30979
22100 30980
22108 30996
22111 31009
22111 31025
22115 31031
22120 31038
22125 31050
22132 31060
22129 31079
22136 31091
22139 31095
22144 31104
22147 31117
22146 31133
22150 31145
22162 31149
22163 31160
22167 31178
22167 31189
22168 31204
22176 31203
22187 31216
22190 31227
22186 31241
22192 31254
22196 31259
22201 31267
22203 31285
22206 31297
22212 31300
22213 31305
22181 31216
22148 31126
22157 31041
22118 30959
22090 30958
22058 30873
22026 30783
22027 30698
22001 30617
21969 30619
21939 30532
21907 30444
21907 30443
21905 30449
21909 30446
21903 30445
21908 30442
21905 30496
21926 30547
21944 30547
21962 30597
21977 30650
21981 31303
22214 31301
22187 31211
22150 31129
22151 31041
22119 31043
22094 30960
22060 30876
22060 30783
22024 30786
21995 30700
21972 30614
21967 30534
21938 30527
21906 30443
21904 30442
21905 30444
21903 30443
21903 30444
21902 30445
21902 30496
21925 30496
21945 30545
21941 30600
21964 30654
21981 30652
22001 30702
21999 30754
22018 30806
22037 30808
22053 30860
22054 30906
22073 30960
22093 30957
22090 30958
22089 30961
22093 30947
22084 30946
22079 30928
22080 30912
22075 30892
22068 30892
22060 30878
22060 30876
22063 30887
22065 30891
22069 30897
22070 30913
22070 30924
22081 30929
22087 30945
22084 30956
22089 30957
22097 30973
22103 30981
22097 30996
22106 30996
22214 31304
22213 31218
22181 31217
22153 31132
22122 31045
22121 30961
22092 30960
22060 30872
22063 30790
22030 30792
21997 30705
22000 30619
21969 30620
21941 30536
21942 30450
21906 30444
21908 30446
21905 30448
21908 30447
21908 30446
21907 30447
21907 30494
21926 30499
21944 30548
21944 30602
21961 30596
21978 30649
21983 30701
21998 30751
22018 30753
22037 30810
22038 30856
22057 30855
22072 30909
22069 30955
22088 30957
22085 30957
22092 30950
22091 30953
22085 30935
22081 30921
22079 30905
22072 30911
22065 30892
22068 30872
22061 30870
22057 30876
22058 30887
22061 30882
22068 30894
22064 30911
22075 30908
22081 30927
22081 30939
22084 30953
22087 30952
22097 30966
22091 30977
22098 30976
22103 30990
22102 31005
22109 31006
22111 31022
22114 31028
22116 31037
22121 31046
22130 31061
22128 31079
22129 31071
22138 31095
22136 31102
22143 31106
22146 31112
22148 31131
22152 31130
22159 31143
22157 31154
22158 31156
22166 31171
22166 31300
22209 31303
22183 31217
22180 31127
22151 31125
22117 31037
22118 30952
22088 30958
22060 30872
22059 30792
22025 30786
22028 30699
21999 30708
21966 30619
21970 30529
21941 30532
21907 30446
21908 30444
21906 30445
21908 30445
21910 30445
21907 30448
21907 30447
21906 30451
21927 30497
21929 30548
21944 30552
21962 30601
21963 30651
21983 30654
21999 30705
21999 30759
22021 30757
22033 30804
22039 30852
22055 30858
22058 30906
22072 30908
22089 30961
22091 30958
22089 30963
22093 30957
22091 30942
22086 30941
22080 30920
22081 30906
22074 30907
22071 30891
22064 30890
22060 30873
22057 30873
22057 30869
22064 30885
22064 31304
22213 31302
22213 31214
22183 31216
22151 31128
22152 31059
22122 31040
22121 30962
22089 30961
22058 30871
22062 30874
22025 30787
22029 30703
21999 30703
21996 30620
21972 30617
21937 30532
21938 30444
21905 30444
21912 30447
21906 30448
21910 30444
21907 30450
21910 30445
21904 30450
21909 30450
21927 30502
21925 30500
21946 30550
21947 30600
21962 30598
21963 30655
21979 30651
22003 30704
22000 30754
22019 30756
22017 30807
22038 30805
22052 30854
22055 30859
22072 30908
22072 30960
22088 30957
22090 30957
22090 30959
22091 30964
22091 30937
22087 30941
22084 30920
22077 30924
22074 30909
22071 30906
22067 30888
22066 30877
22058 30873
22060 30869
22059 30876
22067 30888
22065 30898
22069 30895
22070 30911
22078 30916
22080 30928
22080 30944
22091 30946
22084 30958
22088 30954
22093 30968
22093 30974
22100 30981
22100 30995
22104 30997
22110 31006
22107 31008
22115 31023
22112 31035
22121 31034
22114 31051
22120 31049
22127 31062
22130 31069
22130 31072
22135 31089
22138 31091
22142 31108
22142 31108
22149 31122
22155 31140
22155 31135
22156 31153
22161 31153
22165 31165
22166 31175
22171 31178
22168 31190
22171 31190
22179 31204
22175 31206
22182 31220
22183 31228
22186 31230
22191 31241
22195 31239
22200 31261
22199 31272
22205 31271
22201 31283
22207 31284
22211 31298
22218 31303
22213 31303
22214 31219
22182 31215
22156 31131
22152 31134
22122 31044
22122 30956
22094 30961
22081 30871
22062 30874
22029 30788
22032 30703
22000 30703
21998 30615
21968 30616
21940 30534
21938 30533
21905 30447
21910 30444
21909 30445
21904 30445
21909 30453
21905 30445
21908 30448
21905 30443
21912 30500
21925 30496
21945 30549
21942 30591
21967 30602
21961 30651
21983 30654
21998 30695
22000 30704
22013 30757
22022 30809
22038 30804
22057 30858
22054 30861
22077 30914
22071 30963
22092 30959
22090 30959
22092 30962
22089 30954
22091 30956
22082 30940
22091 30924
22078 30922
22075 30910
22072 30909
22070 30892
22066 30878
22064 30884
22062 30877
22062 30876
22066 30889
22065 30903
22077 30902
22073 30915
22078 30915
22085 30932
22081 30928
22093 30948
22089 30953
22091 30953
22094 30970
22093 30970
22102 30985
22098 30995
22108 31001
22105 31009
22110 31012
22115 31025
22115 31040
22120 31045
22117 31057
22126 31056
22128 31064
22133 31063
22136 31085
22137 31092
22142 31094
22144 31108
22147 31104
22149 31120
22150 31137
22154 31135
22154 31149
22156 31147
22165 31165
22162 31158
22170 31175
22169 31187
22173 31195
22181 31199
22183 31208
22183 31220
22186 31235
22190 31237
22186 31241
22195 31245
22199 31258
22197 31274
22201 31272
22203 31289
22210 31285
22209 31299
22213 31303
22220 31301
22218 31217
22183 31222
22161 31136
22157 31131
22123 31042
22122 30959
22091 30959
22094 30874
22061 30872
22032 30789
22032 30788
22001 30707
22000 30617
21969 30615
21935 30528
21939 30530
21905 30446
21905 30446
21908 30447
21908 30446
21903 30447
21909 30446
21907 30443
21908 30445
21907 30497
21929 30499
21946 30547
21947 30549
21965 30598
21963 30651
21984 30652
21997 30704
21996 30699
22017 30752
22016 30804
22039 30805
22032 30854
22055 30858
22072 30909
22071 30939
22091 30959
22094 30961
22095 30969
22099 30973
22095 30967
22092 30955
22096 30937
22088 30942
22087 30916
22079 30921
22072 30899
22065 30875
22062 30878
22063 30881
22063 30878
22065 30888
22066 30885
22072 30904
22074 31305
22216 31301
22187 31218
22184 31129
22154 31133
22122 31049
22123 30959
22094 30961
22059 30873
22065 30803
22029 30785
22032 30702
22000 30698
21970 30621
21967 30532
21941 30535
21907 30446
21905 30445
21909 30451
21910 30445
21906 30445
21907 30446
21911 30446
21910 30452
21924 30496
21930 30551
21945 30547
21963 30600
21957 30651
21987 30652
22002 30703
22000 30759
22019 30756
22037 30808
22037 30848
22059 30858
22054 30905
22076 30909
22095 30963
22091 30959
22092 30957
22093 30956
22094 30942
22084 30940
22080 30924
22073 30906
22073 30904
22071 30892
22064 30892
22060 30871
22058 30874
22060 30874
22061 30886
22063 30904
22073 30906
22079 30917
22079 30931
22083 30930
22087 30944
22087 30952
22090 30955
22092 30970
22096 30970
22109 30987
22100 30997
22108 31003
22109 31010
22110 31030
22115 31024
22117 31038
22121 31052
22128 31053
22126 31067
22130 31066
22132 31081
22137 31094
22140 31094
22146 31105
22143 31121
22150 31122
22150 31133
22156 31147
22158 31146
22167 31159
22161 31163
22168 31170
22171 31192
22174 31184
22180 31200
22179 31213
22184 31214
22188 31228
22185 31241
22189 31240
22197 31257
22197 31276
22201 31266
22204 31286
22209 31284
22206 31300
22212 31302
22215 31305
22182 31218
22189 31136
22152 31132
22124 31049
22121 30956
22096 30963
22058 30874
22063 30866
22030 30788
22030 30701
22001 30702
21969 30618
21968 30533
21936 30536
21904 30444
21912 30444
21911 30443
21906 30453
21910 30447
21908 30444
21912 30452
21907 30450
21928 30500
21928 30550
21942 30552
21964 30599
21962 30655
21981 30655
21997 30702
22002 30756
22021 30757
22040 30806
22035 30807
22055 30860
22055 30907
22077 30910
22092 30963
22093 30965
22089 30959
22094 30963
22091 30943
22087 30941
22077 30926
22083 30904
22073 30909
22070 30895
22065 30889
22061 30873
22061 30875
22062 30879
22064 30886
22064 30898
22070 30899
22077 30913
22076 30934
22080 30930
22085 30942
22087 30945
22091 30955
22088 30971
22097 30973
22101 30982
22101 30996
22105 30993
22107 31006
22108 31019
22115 31021
22112 31031
22119 31046
22125 31043
22124 31062
22126 31061
22131 31077
22132 31092
22137 31096
22145 31106
22141 31122
22148 31121
22155 31137
22158 31145
22159 31152
22164 31154
22167 31161
22169 31169
22168 31191
22176 31190
22177 31203
22178 31215
22184 31213
22189 31231
22191 31247
22192 31242
22202 31259
22198 31267
22204 31274
22203 31284
22210 31286
22215 31300
22208 31304
22217 31223
22182 31214
22154 31132
22154 31047
22127 31042
22092 30958
22092 30873
22060 30872
22030 30786
22030 30706
21999 30703
21968 30614
21969 30535
21940 30452
21910 30450
21913 30448
21905 30444
21906 30446
21912 30447
21909 30448
21906 30449
21928 30500
21927 30546
21943 30544
21964 30599
21970 30652
21981 30698
21999 30702
22018 30756
22014 30808
22038 30807
22055 30854
22054 30903
22077 30908
22092 30955
22091 30958
22094 30957
22093 30961
22086 30939
22086 30922
22074 30922
22073 30906
22071 30889
22066 30889
22062 30871
22061 30873
22063 30877
22065 30888
22066 30898
22072 30904
22074 30910
22081 30930
22082 30940
22082 30938
22088 30948
22092 30969
22092 30966
22101 30985
22104 30994
22106 30994
22109 31006
22111 31018
22116 31023
22115 31031
22125 31047
22122 31064
22129 31062
22132 31083
22134 31088
22133 31093
22141 31105
22143 31118
22151 31116
22150 31129
22156 31151
22157 31153
22161 31161
22166 31173
22164 31182
22170 31180
22178 31200
22174 31211
22179 31213
22186 31227
22184 31238
22187 31240
22197 31255
22200 31270
22201 31282
22207 31285
22210 31292
22216 31302
22213 31304
22181 31212
22183 31125
22149 31125
22122 31038
22120 30957
22086 30957
22064 30875
22058 30785
22029 30707
22000 30703
21970 30616
21967 30530
21939 30533
21904 30446
21907 30445
21904 30445
21907 30443
21905 30445
21908 30446
21904 30442
21915 30497
21925 30549
21943 30548
21964 30599
21963 30652
21980 30653
22000 30700
21997 30752
22019 30754
22032 30803
22039 30857
22051 30849
22068 30909
22086 30959
22093 30962
22091 30960
22092 30957
22086 30941
22087 30940
22076 30926
22075 30906
22070 30904
22064 30885
22066 30875
22066 30871
22061 30871
22064 30882
22062 30899
22070 30895
22073 30913
22072 30928
22078 30926
22084 30938
22080 30953
22089 30951
22097 30965
22093 30977
22098 30985
22102 30996
22100 30992
22097 30989
22107 30989
22099 30992
22106 30995
22099 30994
22106 30995
22102 30995
22103 30996
22099 30992
22107 30991
22101 30988
22102 30995
22104 30990
22103 30995
22103 30990
22102 30994
22102 30991
22101 30994
22103 30996
22102 31297
22215 31301
22180 31211
22175 31126
22146 31038
22120 31041
22086 30953
22092 30873
22058 30782
22027 30785
21996 30698
21999 30615
21967 30525
21938 30533
21905 30443
21905 30444
21905 30446
21907 30444
21908 30446
21905 30446
21907 30491
21923 30495
21940 30544
21943 30596
21963 30647
21978 30651
22001 30698
21998 30753
22021 30802
22035 30804
22054 30852
22055 30909
22076 30955
22091 30960
22091 30958
22086 30957
22090 30946
22085 30942
22075 30917
22076 30902
22071 30902
22065 30891
22059 30869
22058 30871
22059 30869
22063 30883
22066 30895
22066 30909
22073 30915
22079 30926
22083 30945
22083 30960
22090 30956
22100 30970
22101 30980
22099 30992
22109 30995
22112 31010
22117 31021
22115 31036
22121 31037
22120 31046
22125 31064
22126 31075
22137 31072
22136 31089
22148 31104
22144 31118
22150 31118
22151 31133
22160 31148
22160 31162
22164 31160
22165 31172
22167 31182
22173 31198
22179 31203
22180 31215
22179 31230
22185 31239
22194 31242
22201 31254
22202 31275
22207 31287
22207 31278
22210 31295
22213 31304
22214 31212
22183 31208
22150 31130
22154 31041
22119 30961
22091 30957
22060 30869
22059 30784
22028 30699
22002 30700
21966 30613
21967 30533
21937 30444
21904 30444
21909 30446
21906 30448
21905 30445
21909 30446
21906 30437
21905 30495
21927 30541
21947 30543
21960 30595
21961 30646
21983 30672
22001 30700
22016 30751
22019 30802
22035 30804
22054 30854
22075 30908
22069 30957
22091 30962
22089 30957
22089 30959
22094 30940
22087 30939
22078 30925
22071 30907
22072 30888
22067 30889
22059 30871
22059 30870
22058 30884
22068 30889
22066 30900
22074 30913
22074 30921
22085 30927
22088 30940
22085 30949
22087 30967
22093 30965
22101 30982
22101 30992
22102 31006
22107 31004
22114 31024
22113 31032
22121 31049
22119 31049
22130 31066
22130 31076
22131 31092
22136 31091
22142 31102
22142 31114
22145 31130
22154 31130
22161 31143
22156 31159
22160 31177
22166 31170
22168 31184
22172 31202
22172 31215
22182 31212
22182 31223
22187 31243
22190 31243
22198 31255
22195 31263
22204 31282
22205 31294
22209 31300
22211 31300
22215 31218
22179 31129
22152 31132
22119 31045
22123 30963
22090 30872
22059 30880
22030 30782
22029 30706
21998 30637
21971 30621
21936 30533
21942 30451
21910 30450
21912 30455
21909 30448
21910 30452
21906 30445
21910 30452
21927 30500
21925 30547
21946 30549
21960 30598
21988 30656
21978 30703
21997 30706
22020 30756
22036 30807
22036 30856
22056 30861
22078 30912
22096 30962
22094 30959
22092 30962
22090 30958
22085 30946
22084 30926
22079 30927
22071 30906
22066 30892
22068 30873
22062 30871
22060 30874
22065 30894
22063 30900
22071 30900
22076 30914
22082 30931
22081 30940
22087 30941
22213 31305
22181 31216
22181 31131
22153 31046
22123 31042
22094 30959
22058 30874
22057 30790
22029 30702
22000 30700
21967 30616
21935 30530
21939 30451
21907 30446
21904 30445
21908 30441
21908 30448
21908 30445
21905 30490
21923 30489
21939 30542
21960 30587
21961 30646
21978 30699
21999 30699
22017 30750
22033 30801
22038 30848
22054 30903
22072 30904
22089 30954
22091 30956
22090 30959
22092 30941
22082 30940
22075 30926
22072 30905
22069 30890
22067 30871
22060 30875
22058 30872
22065 30889
22066 30896
22067 30910
22071 30914
22079 30925
22083 30943
22082 30956
22088 30968
22097 30967
22095 30983
22108 30997
22100 31008
22108 31020
22114 31020
22122 31031
22122 31051
22119 31063
22130 31082
22132 31080
22138 31090
22143 31105
22143 31119
22148 31128
22152 31133
22157 31142
22159 31159
22164 31172
22166 31188
22174 31183
22179 31198
22186 31215
22180 31229
22186 31241
22190 31244
22200 31256
22207 31274
22202 31288
22210 31299
22214 31301
22215 31302
22182 31215
22179 31132
22155 31044
22122 31044
22090 30958
22058 30871
22059 30780
22036 30705
22000 30698
21969 30619
21935 30529
21936 30447
21906 30445
21906 30449
21908 30445
21906 30449
21907 30446
21908 30500
21924 30496
21941 30552
21961 30601
21965 30651
21979 30698
22000 30701
22014 30746
22038 30804
22032 30861
22057 30907
22073 30904
22094 30960
22091 30960
22091 30965
22090 30944
22089 30947
22078 30922
22078 30912
22074 30891
22069 30874
22060 30869
22066 30873
22064 30883
22067 30901
22073 30907
22077 30916
22086 30929
22085 30938
22086 30954
22092 30971
22097 30964
22103 30983
22105 30992
22100 31008
22113 31025
22113 31029
22125 31042
22124 31055
22129 31067
22127 31082
22138 31081
22138 31090
22145 31106
22146 31118
22151 31136
22153 31135
22161 31151
22162 31163
22168 31176
22164 31186
22176 31193
22178 31202
22184 31218
22186 31229
22193 31244
22187 31248
22205 31256
22197 31269
22204 31283
22208 31299
22213 31296
22213 31300
22185 31217
22179 31131
22153 31044
22121 31039
22094 30954
22061 30875
22056 30784
22030 30696
21999 30696
21968 30615
21937 30530
21942 30448
21908 30443
21907 30442
21907 30444
21907 30445
21913 30445
21902 30496
21928 30495
21945 30553
21969 30602
21960 30653
21985 30708
22003 30704
22021 30754
22034 30807
22040 30854
22054 30905
22077 30904
22089 30957
22090 30954
22089 30957
22091 30938
22085 30937
22080 30919
22072 30904
22070 30889
22067 30871
22058 30871
22061 30876
22068 30885
22064 30907
22069 30915
22078 30915
22085 30928
22084 30944

22087 30957
123